time,STAGE,INFLOW,RAINFALL,RUNOFF,LAK,WITHDRAWAL,EVAPORATION,STORAGE,VOLUME,SURFACE-AREA,WETTED-AREA,CONDUCTANCE
1.000000000000,299.5725092,0.000000000,1359.575003,0.000000000,872.3776718,0.000000000,-487.9506765,0.000000000,3052190.074,552400.0000,552400.0000,4733.708723
2.878892094669,299.5685821,0.000000000,18.10446452,0.000000000,854.1242474,0.000000000,-318.5495048,1154.569722,3050020.762,552400.0000,552400.0000,4733.708723
5.133562608273,299.5639484,0.000000000,18.10446452,0.000000000,834.8390571,0.000000000,-318.5495048,1135.282641,3047461.073,552400.0000,552400.0000,4733.708723
7.839167224597,299.5584912,0.000000000,18.10446452,0.000000000,813.7271251,0.000000000,-318.5495048,1114.171785,3044446.565,552400.0000,552400.0000,4733.708723
11.08589276419,299.5520788,0.000000000,18.10446452,0.000000000,790.5789377,0.000000000,-318.5495048,1091.022059,3040904.316,552400.0000,552400.0000,4733.708723
14.98196341169,299.5445627,0.000000000,18.10446452,0.000000000,765.2080447,0.000000000,-318.5495048,1065.652141,3036752.460,552400.0000,552400.0000,4733.708723
19.65724818870,299.5357784,0.000000000,18.10446452,0.000000000,737.4576352,0.000000000,-318.5495048,1037.900936,3031899.977,552400.0000,552400.0000,4733.708723
25.26758992111,299.5255446,0.000000000,18.10446452,0.000000000,707.1893298,0.000000000,-318.5495048,1007.631138,3026246.822,552400.0000,552400.0000,4733.708723
32.00000000000,299.5136649,0.000000000,18.10446452,0.000000000,674.2947699,0.000000000,-318.5495048,974.7363096,3019684.498,552400.0000,552400.0000,4733.708723
33.69706382744,299.5145436,0.000000000,1302.874857,0.000000000,646.0773379,0.000000000,-370.7866085,-286.0109114,3020169.877,552400.0000,552400.0000,4733.708723
35.73354042038,299.5157109,0.000000000,1302.874857,0.000000000,615.4489640,0.000000000,-370.7866085,-316.6390962,3020814.705,552400.0000,552400.0000,4733.708723
38.17731233189,299.5172648,0.000000000,1302.874857,0.000000000,580.8475968,0.000000000,-370.7866085,-351.2403522,3021673.056,552400.0000,552400.0000,4733.708723
41.10983862572,299.5193351,0.000000000,1302.874857,0.000000000,542.1064767,0.000000000,-370.7866085,-389.9806942,3022816.685,552400.0000,552400.0000,4733.708723
44.62887017830,299.5220935,0.000000000,1302.874857,0.000000000,499.0840082,0.000000000,-370.7866085,-433.0036438,3024340.438,552400.0000,552400.0000,4733.708723
48.85170804141,299.5257646,0.000000000,1302.874857,0.000000000,451.8567362,0.000000000,-370.7866085,-480.2292762,3026368.368,552400.0000,552400.0000,4733.708723
53.91911347713,299.5306434,0.000000000,1302.874857,0.000000000,400.2500958,0.000000000,-370.7866085,-531.8370081,3029063.402,552400.0000,552400.0000,4733.708723
60.00000000000,299.5371142,0.000000000,1302.874857,0.000000000,344.2626514,0.000000000,-370.7866085,-587.8239541,3032637.893,552400.0000,552400.0000,4733.708723
61.87889209467,299.5348487,0.000000000,230.8319226,0.000000000,370.4845928,0.000000000,-526.4161464,666.0688842,3031386.421,552400.0000,552400.0000,4733.708723
64.13356260827,299.5320241,0.000000000,230.8319226,0.000000000,396.4472566,0.000000000,-526.4161464,692.0315065,3029826.118,552400.0000,552400.0000,4733.708723
66.83916722460,299.5284980,0.000000000,230.8319226,0.000000000,424.3391442,0.000000000,-526.4161464,719.9233127,3027878.291,552400.0000,552400.0000,4733.708723
70.08589276419,299.5240926,0.000000000,230.8319226,0.000000000,453.9445525,0.000000000,-526.4161464,749.5280023,3025444.779,552400.0000,552400.0000,4733.708723
73.98196341169,299.5185875,0.000000000,230.8319226,0.000000000,484.9619000,0.000000000,-526.4161464,780.5459808,3022403.717,552400.0000,552400.0000,4733.708723
78.65724818870,299.5117082,0.000000000,230.8319226,0.000000000,517.2246735,0.000000000,-526.4161464,812.8088782,3018603.604,552400.0000,552400.0000,4733.708723
84.26758992111,299.5031192,0.000000000,230.8319226,0.000000000,550.0986524,0.000000000,-526.4161464,845.6827562,3013859.034,552400.0000,552400.0000,4733.708723
91.00000000000,299.4924086,0.000000000,230.8319226,0.000000000,583.2287601,0.000000000,-526.4161464,878.8123706,3007942.509,552400.0000,552400.0000,4733.708723
92.81828267226,299.4955144,0.000000000,2361.878267,0.000000000,557.8628861,0.000000000,-860.4652775,-943.5501564,3009658.150,552400.0000,552400.0000,4733.708723
95.00022187897,299.4993439,0.000000000,2361.878267,0.000000000,531.9022270,0.000000000,-860.4652775,-969.5104894,3011773.563,552400.0000,552400.0000,4733.708723
97.61854892703,299.5040748,0.000000000,2361.878267,0.000000000,503.3070791,0.000000000,-860.4652775,-998.1054091,3014386.929,552400.0000,552400.0000,4733.708723
100.7605413847,299.5099304,0.000000000,2361.878267,0.000000000,471.9376796,0.000000000,-860.4652775,-1029.474899,3017621.532,552400.0000,552400.0000,4733.708723
104.5309323339,299.5171904,0.000000000,2361.878267,0.000000000,437.7472525,0.000000000,-860.4652775,-1063.664940,3021631.964,552400.0000,552400.0000,4733.708723
109.0554014729,299.5262092,0.000000000,2361.878267,0.000000000,400.2862162,0.000000000,-860.4652775,-1101.122961,3026613.961,552400.0000,552400.0000,4733.708723
114.4847644398,299.5374323,0.000000000,2361.878267,0.000000000,359.5434509,0.000000000,-860.4652775,-1141.869335,3032813.584,552400.0000,552400.0000,4733.708723
121.0000000000,299.5514150,0.000000000,2361.878267,0.000000000,315.8704875,0.000000000,-860.4652775,-1185.541102,3040537.664,552400.0000,552400.0000,4733.708723
122.8788920947,299.5472051,0.000000000,312.3020129,0.000000000,344.7816215,0.000000000,-1205.267191,1237.746806,3038212.071,552400.0000,552400.0000,4733.708723
125.1335626083,299.5420455,0.000000000,312.3020129,0.000000000,371.1311392,0.000000000,-1205.267191,1264.096406,3035361.950,552400.0000,552400.0000,4733.708723
127.8391672246,299.5357108,0.000000000,312.3020129,0.000000000,400.3857358,0.000000000,-1205.267191,1293.351297,3031862.653,552400.0000,552400.0000,4733.708723
131.0858927642,299.5279193,0.000000000,312.3020129,0.000000000,432.6793548,0.000000000,-1205.267191,1325.644598,3027558.649,552400.0000,552400.0000,4733.708723
134.9819634117,299.5183243,0.000000000,312.3020129,0.000000000,467.4570008,0.000000000,-1205.267191,1360.421139,3022258.352,552400.0000,552400.0000,4733.708723
139.6572481887,299.5064980,0.000000000,312.3020129,0.000000000,504.3505355,0.000000000,-1205.267191,1397.313874,3015725.512,552400.0000,552400.0000,4733.708723
145.2675899211,299.4919148,0.000000000,312.3020129,0.000000000,542.9166385,0.000000000,-1205.267191,1435.881288,3007669.727,552400.0000,552400.0000,4733.708723
152.0000000000,299.4739353,0.000000000,312.3020129,0.000000000,582.2651886,0.000000000,-1205.267191,1475.230325,2997737.871,552400.0000,552400.0000,4733.708723
153.8182826723,299.4704697,0.000000000,1318.910240,0.000000000,599.7990934,0.000000000,-1771.973312,1052.862413,2995823.470,552400.0000,552400.0000,4733.708723
156.0002218790,299.4662381,0.000000000,1318.910240,0.000000000,618.2540841,0.000000000,-1771.973312,1071.317812,2993485.920,552400.0000,552400.0000,4733.708723
158.6185489270,299.4610511,0.000000000,1318.910240,0.000000000,641.2609625,0.000000000,-1771.973312,1094.324279,2990620.621,552400.0000,552400.0000,4733.708723
161.7605413847,299.4546663,0.000000000,1318.910240,0.000000000,669.4652538,0.000000000,-1771.973312,1122.528277,2987093.645,552400.0000,552400.0000,4733.708723
165.5309323339,299.4467763,0.000000000,1318.910240,0.000000000,702.8935088,0.000000000,-1771.973312,1155.954558,2982735.245,552400.0000,552400.0000,4733.708723
170.0554014729,299.4369966,0.000000000,1318.910240,0.000000000,740.9634162,0.000000000,-1771.973312,1194.024344,2977332.918,552400.0000,552400.0000,4733.708723
175.4847644398,299.4248580,0.000000000,1318.910240,0.000000000,781.9528329,0.000000000,-1771.973312,1235.015589,2970627.571,552400.0000,552400.0000,4733.708723
182.0000000000,299.4097932,0.000000000,1318.908265,0.000000000,824.2382046,0.000000000,-1771.970658,1277.299738,2962305.662,552399.1729,552399.1729,4733.673334
183.8788920947,299.4051878,0.000000000,1380.417316,0.000000000,841.2405119,0.000000000,-1894.099728,1354.923393,2959759.907,552380.7514,552380.7514,4732.885170
186.1335626083,299.3995837,0.000000000,1380.361297,0.000000000,860.1995009,0.000000000,-1894.022863,1373.860930,2956662.303,552358.3350,552358.3350,4731.926084
188.8391672246,299.3927563,0.000000000,1380.293049,0.000000000,881.0378777,0.000000000,-1893.929219,1394.673547,2952888.868,552331.0253,552331.0253,4730.757640
192.0858927642,299.3844301,0.000000000,1380.209819,0.000000000,903.6099694,0.000000000,-1893.815017,1417.215100,2948287.560,552297.7204,552297.7204,4729.332689
195.9819634117,299.3742684,0.000000000,1380.108242,0.000000000,927.6022008,0.000000000,-1893.675640,1441.166699,2942672.672,552257.0736,552257.0736,4727.593617
200.6572481887,299.3618555,0.000000000,1379.984160,0.000000000,953.2772878,0.000000000,-1893.505386,1466.798174,2935814.973,552207.4219,552207.4219,4725.469267
206.2675899211,299.3466802,0.000000000,1379.832467,0.000000000,980.5819818,0.000000000,-1893.297243,1494.045656,2927432.867,552146.7209,552146.7209,4722.872173
213.0000000000,299.3281169,0.000000000,1379.646905,0.000000000,1009.241606,0.000000000,-1893.042631,1522.637070,2917181.849,552072.4675,552072.4675,4719.695244
214.8788920947,299.3249298,0.000000000,1641.968072,0.000000000,1018.799544,0.000000000,-1559.734676,936.5653665,2915422.144,552059.7191,552059.7191,4719.149802
217.1335626083,299.3210605,0.000000000,1641.922038,0.000000000,1029.711440,0.000000000,-1559.690948,947.4783252,2913285.893,552044.2419,552044.2419,4718.487610
219.8391672246,299.3163641,0.000000000,1641.866165,0.000000000,1040.520160,0.000000000,-1559.637873,958.2902846,2910693.138,552025.4562,552025.4562,4717.683863
223.0858927642,299.3106661,0.000000000,1641.798376,0.000000000,1051.025966,0.000000000,-1559.573479,968.7997863,2907547.711,552002.6644,552002.6644,4716.708715
226.9819634117,299.3037566,0.000000000,1641.790452,0.000000000,1061.181566,0.000000000,-1559.565951,978.9560647,2903733.629,552000.0000,552000.0000,4716.594721
231.6572481887,299.2953810,0.000000000,1641.790452,0.000000000,1071.107419,0.000000000,-1559.565951,988.8796037,2899110.335,552000.0000,552000.0000,4716.594721
237.2675899211,299.2852342,0.000000000,1641.733754,0.000000000,1080.887112,0.000000000,-1559.512093,998.6639641,2893507.489,551980.9372,551980.9372,4715.626568
244.0000000000,299.2729410,0.000000000,1641.587500,0.000000000,1090.730481,0.000000000,-1559.373164,1008.514130,2886717.758,551931.7640,551931.7640,4713.129190
245.8182826723,299.2709766,0.000000000,1471.981058,0.000000000,1084.722355,0.000000000,-983.8936269,596.6351026,2885632.907,551923.9064,551923.9064,4712.730122
248.0002218790,299.2686396,0.000000000,1471.941615,0.000000000,1079.798569,0.000000000,-983.8672625,591.7242278,2884341.801,551909.1171,551909.1171,4712.041458
250.6185489270,299.2658681,0.000000000,1471.882483,0.000000000,1072.973155,0.000000000,-983.8277377,584.9170153,2882810.297,551886.9453,551886.9453,4711.042639
253.7605413847,299.2625924,0.000000000,1471.812592,0.000000000,1064.100837,0.000000000,-983.7810214,576.0684161,2881000.294,551860.7393,551860.7393,4709.862084
257.5309323339,299.2587348,0.000000000,1471.730287,0.000000000,1053.265113,0.000000000,-983.7260079,565.2601993,2878869.042,551829.8790,551829.8790,4708.471855
262.0554014729,299.2542075,0.000000000,1471.633691,0.000000000,1040.753421,0.000000000,-983.6614415,552.7792058,2876368.010,551793.6599,551793.6599,4706.840217
267.4847644398,299.2489092,0.000000000,1471.520647,0.000000000,1026.948969,0.000000000,-983.5858815,539.0066788,2873441.547,551751.2739,551751.2739,4704.930763
274.0000000000,299.2427214,0.000000000,1471.388623,0.000000000,1012.398088,0.000000000,-983.4976345,524.5033393,2870024.284,551701.7710,551701.7710,4702.700701
275.8788920947,299.2420324,0.000000000,1396.788148,0.000000000,990.0831884,0.000000000,-609.1956982,202.4908549,2869643.826,551696.2590,551696.2590,4702.452394
278.1335626083,299.2413073,0.000000000,1396.773462,0.000000000,965.1603404,0.000000000,-609.1892930,177.5763560,2869243.450,551690.4584,551690.4584,4702.191082
280.8391672246,299.2405752,0.000000000,1396.758633,0.000000000,936.9934780,0.000000000,-609.1828255,149.4179865,2868839.184,551684.6014,551684.6014,4701.927226
284.0858927642,299.2398810,0.000000000,1396.744573,0.000000000,905.6250713,0.000000000,-609.1766932,118.0588083,2868455.879,551679.0479,551690.7465,4702.136927
287.9819634117,299.2392929,0.000000000,1396.732661,0.000000000,870.9037624,0.000000000,-609.1714982,83.34318587,2868131.168,551674.3432,551721.0066,4703.299479
292.6572481887,299.2389090,0.000000000,1396.724886,0.000000000,832.8921458,0.000000000,-609.1681070,45.33688225,2867919.205,551671.2721,551755.2011,4704.626068
298.2675899211,299.2388673,0.000000000,1396.724042,0.000000000,791.6561052,0.000000000,-609.1677388,4.102518891,2867896.189,551670.9386,551794.1912,4706.156884
305.0000000000,299.2393541,0.000000000,1396.733902,0.000000000,747.6325236,0.000000000,-609.1720393,-39.92563031,2868164.984,551674.8332,551797.4166,4706.306025
306.8182826723,299.2362553,0.000000000,247.5437623,0.000000000,750.7644827,0.000000000,-437.7549815,940.9755519,2866454.025,551650.0423,551785.0211,4705.676491
309.0002218790,299.2325223,0.000000000,247.5303614,0.000000000,754.3115727,0.000000000,-437.7312834,944.5124174,2864393.156,551620.1784,551767.9817,4704.835289
311.6185489270,299.2280210,0.000000000,247.5142022,0.000000000,758.7939185,0.000000000,-437.7027077,948.9818604,2861908.411,551584.1678,551723.3282,4702.873286
314.7605413847,299.2225894,0.000000000,247.4947034,0.000000000,763.9513728,0.000000000,-437.6682261,954.1234541,2858910.563,551540.7148,551671.0071,4700.567155
318.5309323339,299.2160320,0.000000000,247.4711635,0.000000000,769.5677946,0.000000000,-437.6265981,959.7205970,2855292.041,551488.2561,551609.8232,4697.860944
323.0554014729,299.2081119,0.000000000,247.4427313,0.000000000,775.6443944,0.000000000,-437.5763189,965.7769539,2850922.413,551424.8952,551537.9793,4694.673117
328.4847644398,299.1985401,0.000000000,247.4083698,0.000000000,782.3025087,0.000000000,-437.5155542,972.4055671,2845642.870,551348.3208,551453.2054,4690.901180
335.0000000000,299.1869667,0.000000000,247.3668229,0.000000000,789.6060997,0.000000000,-437.4420828,979.6812813,2839260.016,551255.7336,551352.5275,4686.485283
336.8788920947,299.1841741,0.000000000,289.0596786,0.000000000,792.7289610,0.000000000,-316.3011650,819.9696458,2837719.381,551233.3930,551326.5926,4685.404887
339.1335626083,299.1808082,0.000000000,289.0455582,0.000000000,796.2882783,0.000000000,-316.2857139,823.5271098,2835862.599,551206.4655,551295.7152,4684.117697
341.8391672246,299.1767486,0.000000000,289.0285276,0.000000000,800.3788906,0.000000000,-316.2670784,827.6173902,2833623.393,551173.9885,551258.8698,4682.580781
345.0858927642,299.1718489,0.000000000,289.0079730,0.000000000,805.0574065,0.000000000,-316.2445866,832.2915852,2830921.171,551134.7909,551214.8478,4680.743431
348.9819634117,299.1659311,0.000000000,288.9916822,0.000000000,810.3301887,0.000000000,-316.2267605,837.5726980,2827657.929,551103.7246,551162.2747,4678.547742
353.6572481887,299.1587783,0.000000000,288.9766788,0.000000000,816.3239944,0.000000000,-316.2103432,843.5676719,2823714.010,551075.1133,551099.2118,4675.912763
359.2675899211,299.1501259,0.000000000,288.9585298,0.000000000,823.0262749,0.000000000,-316.1904839,850.2553254,2818943.787,551040.5035,551040.5035,4673.416277
366.0000000000,299.1396552,0.000000000,288.9358442,0.000000000,830.1096319,0.000000000,-316.1656602,857.3380779,2813171.835,550997.2422,550997.2422,4671.487872
367.8788920947,299.1378685,0.000000000,595.9147187,0.000000000,837.2640570,0.000000000,-283.1888373,524.5371279,2812186.286,550982.9480,550982.9480,4670.889510
370.1335626083,299.1356915,0.000000000,595.8958829,0.000000000,845.2513548,0.000000000,-283.1798862,532.5343831,2810985.597,550965.5324,550965.5324,4670.160486
372.8391672246,299.1330350,0.000000000,595.8728980,0.000000000,854.2007692,0.000000000,-283.1689634,541.4967617,2809520.521,550944.2805,550944.2805,4669.270872
376.0858927642,299.1297885,0.000000000,595.8448074,0.000000000,864.1258091,0.000000000,-283.1556142,551.4366080,2807730.157,550918.3079,550918.3079,4668.183646
379.9819634117,299.1258134,0.000000000,595.8104131,0.000000000,875.2634772,0.000000000,-283.1392695,562.5913036,2805538.262,550886.5070,550886.5070,4666.852444
384.6572481887,299.1209366,0.000000000,595.7682177,0.000000000,887.7389563,0.000000000,-283.1192175,575.0891325,2802849.557,550847.4931,550847.4931,4665.219304
390.2675899211,299.1149449,0.000000000,595.6945054,0.000000000,901.6776411,0.000000000,-283.0841882,589.0660695,2799544.695,550779.3387,550799.5590,4663.212757
397.0000000000,299.1075647,0.000000000,595.5987209,0.000000000,917.0951702,0.000000000,-283.0386697,604.5316719,2795474.739,550690.7763,550740.5174,4660.741247
398.6970638274,299.1039419,0.000000000,64.93704972,0.000000000,903.2509252,0.000000000,-338.6631676,1176.976884,2793477.335,550647.3023,550711.5347,4659.528018
400.7335404204,299.0996493,0.000000000,64.93097515,0.000000000,888.2254144,0.000000000,-338.6314872,1161.925348,2791111.101,550595.7917,550677.1944,4658.090513
403.1773123319,299.0945709,0.000000000,64.92378842,0.000000000,871.6458271,0.000000000,-338.5940066,1145.314598,2788312.213,550534.8503,550636.5667,4656.389821
406.1098386257,299.0885726,0.000000000,64.91597339,0.000000000,853.3843600,0.000000000,-338.5532492,1127.020804,2785007.195,550468.5811,550594.2905,4654.636677
409.6288701783,299.0815017,0.000000000,64.90930243,0.000000000,833.3042999,0.000000000,-338.5184585,1106.912278,2781111.936,550412.0133,550566.0066,4653.534725
413.8517080414,299.0731881,0.000000000,64.89824597,0.000000000,811.3187384,0.000000000,-338.4607962,1084.880944,2776530.659,550318.2578,550505.5052,4651.151185
418.9191134771,299.0634309,0.000000000,64.88443806,0.000000000,787.2872771,0.000000000,-338.3887845,1060.790568,2771155.204,550201.1707,550427.4472,4648.072224
425.0000000000,299.0520063,0.000000000,64.86827062,0.000000000,761.1373489,0.000000000,-338.3044672,1034.573721,2764864.078,550064.0755,550338.7475,4644.574816
426.8788920947,299.0508631,0.000000000,865.3179303,0.000000000,746.3310209,0.000000000,-453.9321005,334.9453338,2764234.752,550050.3576,550347.8039,4644.940850
429.1335626083,299.0495611,0.000000000,865.2905878,0.000000000,729.3573172,0.000000000,-453.9177571,317.9851108,2763517.800,550032.9770,550353.7646,4645.164514
431.8391672246,299.0480949,0.000000000,865.2536840,0.000000000,709.8521772,0.000000000,-453.8983980,298.4973030,2762710.185,550009.5186,550356.6190,4645.219426
435.0858927642,299.0464653,0.000000000,865.2126666,0.000000000,687.7845876,0.000000000,-453.8768809,276.4507437,2761812.625,549983.4454,550359.7243,4645.277765
438.9819634117,299.0446844,0.000000000,865.1678400,0.000000000,663.0590696,0.000000000,-453.8533656,251.7450501,2760831.808,549954.9508,550363.1548,4645.342997
443.6572481887,299.0427801,0.000000000,865.1199074,0.000000000,635.5891147,0.000000000,-453.8282209,224.2992159,2759783.146,549924.4818,550367.2241,4645.428764
449.2675899211,299.0408021,0.000000000,865.0701184,0.000000000,605.3990336,0.000000000,-453.8021023,194.1335622,2758693.990,549892.8328,550366.4164,4645.316826
456.0000000000,299.0388291,0.000000000,865.0278257,0.000000000,572.5922215,0.000000000,-453.7799163,161.3451764,2757607.748,549865.9489,550355.3164,4644.789601
457.8182826723,299.0397857,0.000000000,1564.291310,0.000000000,567.5725739,0.000000000,-707.0572628,-289.6612354,2758134.434,549877.4289,550359.1431,4644.984640
460.0002218790,299.0409569,0.000000000,1564.342179,0.000000000,561.7384546,0.000000000,-707.0802556,-295.5224717,2758779.246,549895.3103,550367.6552,4645.372526
462.6185489270,299.0423942,0.000000000,1564.407601,0.000000000,555.0388514,0.000000000,-707.1098265,-302.2587088,2759570.658,549918.3076,550379.1538,4645.889554
