time,STAGE,INFLOW,RAINFALL,RUNOFF,LAK,WITHDRAWAL,EVAPORATION,STORAGE,VOLUME,SURFACE-AREA,WETTED-AREA,CONDUCTANCE
1.000000000000,335.9308274,0.000000000,370.5443193,0.000000000,206.9879046,0.000000000,-163.5559190,0.000000000,479649.2977,175600.0000,175600.0000,4789.400620
2.878892094669,335.9277719,0.000000000,5.755148387,0.000000000,192.2662406,0.000000000,-99.05489604,285.5673645,479112.7475,175600.0000,175600.0000,4789.400620
5.133562608273,335.9243069,0.000000000,5.755148387,0.000000000,176.5783007,0.000000000,-99.05489604,269.8616809,478504.2983,175600.0000,175600.0000,4789.400620
7.839167224597,335.9204082,0.000000000,5.755148387,0.000000000,159.7777780,0.000000000,-99.05489604,253.0379693,477819.6776,175600.0000,175600.0000,4789.400620
11.08589276419,335.9160623,0.000000000,5.755148387,0.000000000,141.8220133,0.000000000,-99.05489604,235.0466882,477056.5455,175600.0000,175600.0000,4789.400620
14.98196341169,335.9112722,0.000000000,5.755148387,0.000000000,122.7142528,0.000000000,-99.05489604,215.8972016,476215.3948,175600.0000,175600.0000,4789.400620
19.65724818870,335.9060630,0.000000000,5.755148387,0.000000000,102.5425596,0.000000000,-99.05489604,195.6535261,475300.6588,175600.0000,175600.0000,4789.400620
25.26758992111,335.9004886,0.000000000,5.755148387,0.000000000,81.43907349,0.000000000,-99.05489604,174.4755623,474321.7913,175600.0000,175600.0000,4789.400620
32.00000000000,335.8946381,0.000000000,5.755148387,0.000000000,59.64763993,0.000000000,-99.05489604,152.5974745,473294.4425,175600.0000,175600.0000,4789.400620
33.69706382744,335.8972557,0.000000000,420.5369143,0.000000000,34.38498046,0.000000000,-115.2999488,-270.8519772,473754.0956,175600.0000,175600.0000,4789.400620
35.73354042038,335.9007159,0.000000000,420.5369143,0.000000000,6.861643373,0.000000000,-115.2999488,-298.3641646,474361.7072,175600.0000,175600.0000,4789.400620
38.17731233189,335.9052918,0.000000000,420.5369143,0.000000000,-23.58940277,0.000000000,-115.2999488,-328.8076759,475165.2382,175600.0000,175600.0000,4789.400620
41.10983862572,335.9113404,0.000000000,420.5369143,0.000000000,-56.98933184,0.000000000,-115.2999488,-362.1914644,476227.3742,175600.0000,175600.0000,4789.400620
44.62887017830,335.9193258,0.000000000,420.5369143,0.000000000,-93.29879098,0.000000000,-115.2999488,-398.4720341,477629.6098,175600.0000,175600.0000,4789.400620
48.85170804141,335.9298469,0.000000000,420.5369143,0.000000000,-132.3786297,0.000000000,-115.2999488,-437.5032111,479477.1150,175600.0000,175600.0000,4789.400620
53.91911347713,335.9436744,0.000000000,420.5369143,0.000000000,-174.1175356,0.000000000,-115.2999488,-479.1636506,481905.2315,175600.0000,175600.0000,4789.400620
60.00000000000,335.9617840,0.000000000,420.5369143,0.000000000,-218.0448226,0.000000000,-115.2999488,-522.9555739,485085.2650,175600.0000,175600.0000,4789.400620
61.87889209467,335.9628741,0.000000000,71.93935484,0.000000000,-193.0545344,0.000000000,-163.1072001,-101.8862193,485276.6982,175600.0000,175600.0000,4789.400620
64.13356260827,335.9638564,0.000000000,71.93935484,0.000000000,-167.6589530,0.000000000,-163.1072001,-76.50115698,485449.1831,175600.0000,175600.0000,4789.400620
66.83916722460,335.9646194,0.000000000,71.93935484,0.000000000,-140.6747608,0.000000000,-163.1072001,-49.51765849,485583.1583,175600.0000,175600.0000,4789.400620
70.08589276419,335.9650092,0.000000000,71.93935484,0.000000000,-112.2400273,0.000000000,-163.1072001,-21.08675498,485651.6212,175600.0000,175600.0000,4789.400620
73.98196341169,335.9648192,0.000000000,71.93935484,0.000000000,-82.57391193,0.000000000,-163.1072001,8.565234892,485618.2504,175600.0000,175600.0000,4789.400620
78.65724818870,335.9637779,0.000000000,71.93935484,0.000000000,-52.01597220,0.000000000,-163.1072001,39.10969765,485435.4014,175600.0000,175600.0000,4789.400620
84.26758992111,335.9615352,0.000000000,71.93935484,0.000000000,-20.87814167,0.000000000,-163.1072001,70.19657001,485041.5747,175600.0000,175600.0000,4789.400620
91.00000000000,335.9576472,0.000000000,71.93935484,0.000000000,10.38774103,0.000000000,-163.1072001,101.4096904,484358.8431,175600.0000,175600.0000,4789.400620
92.81828267226,335.9629039,0.000000000,758.2408000,0.000000000,-15.21150295,0.000000000,-265.7822211,-507.6698669,485281.9304,175600.0000,175600.0000,4789.400620
95.00022187897,335.9695337,0.000000000,758.2408000,0.000000000,-41.11269676,0.000000000,-265.7822211,-533.5546863,486446.1143,175600.0000,175600.0000,4789.400620
97.61854892703,335.9778978,0.000000000,758.2408000,0.000000000,-68.52109801,0.000000000,-265.7822211,-560.9431846,487914.8470,175600.0000,175600.0000,4789.400620
100.7605413847,335.9884454,0.000000000,758.2408000,0.000000000,-97.07825832,0.000000000,-265.7822211,-589.4868494,489767.0102,175600.0000,175600.0000,4789.400620
104.5309323339,336.0017372,0.000000000,758.2408000,0.000000000,-126.6776004,0.000000000,-265.7822211,-619.0446122,492101.0504,175600.0000,175600.0000,4789.400620
109.0554014729,336.0184728,0.000000000,758.2408000,0.000000000,-157.2301877,0.000000000,-265.7822211,-649.5284520,495039.8219,175600.0000,175600.0000,4789.400620
114.4847644398,336.0395237,0.000000000,758.2408000,0.000000000,-188.6511445,0.000000000,-265.7822211,-680.8407056,498736.3532,175600.0000,175600.0000,4789.400620
121.0000000000,336.0659785,0.000000000,758.2408000,0.000000000,-221.0191667,0.000000000,-265.7822211,-713.0172743,503381.8287,175600.0000,175600.0000,4789.400620
122.8788920947,336.0652301,0.000000000,129.4908387,0.000000000,-176.1666571,0.000000000,-375.6028081,69.94602309,503250.4077,175600.0000,175600.0000,4789.400620
125.1335626083,336.0639174,0.000000000,129.4908387,0.000000000,-143.8703265,0.000000000,-375.6028081,102.2412080,503019.8874,175600.0000,175600.0000,4789.400620
127.8391672246,336.0618201,0.000000000,129.4908387,0.000000000,-109.9927273,0.000000000,-375.6028081,136.1192091,502651.6027,175600.0000,175600.0000,4789.400620
131.0858927642,336.0586482,0.000000000,129.4908387,0.000000000,-74.56247642,0.000000000,-375.6028081,171.5483507,502094.6323,175600.0000,175600.0000,4789.400620
134.9819634117,336.0540258,0.000000000,129.4908387,0.000000000,-37.71117673,0.000000000,-375.6028081,208.3385179,501282.9307,175600.0000,175600.0000,4789.400620
139.6572481887,336.0474683,0.000000000,129.4908387,0.000000000,0.2844573860,0.000000000,-375.6028081,246.2961920,500131.4258,175600.0000,175600.0000,4789.400620
145.2675899211,336.0383572,0.000000000,129.4908387,0.000000000,39.22594523,0.000000000,-375.6028081,285.1712096,498531.5179,175600.0000,175600.0000,4789.400620
152.0000000000,336.0258945,0.000000000,129.4908387,0.000000000,78.96733452,0.000000000,-375.6028081,325.0605529,496343.0769,175600.0000,175600.0000,4789.400620
153.8182826723,336.0229563,0.000000000,377.6336533,0.000000000,106.9448650,0.000000000,-554.4427377,283.7537062,495827.1325,175600.0000,175600.0000,4789.400620
156.0002218790,336.0192214,0.000000000,377.6336533,0.000000000,123.7715869,0.000000000,-554.4427377,300.5796393,495171.2860,175600.0000,175600.0000,4789.400620
158.6185489270,336.0144542,0.000000000,377.6336533,0.000000000,142.9083885,0.000000000,-554.4427377,319.7159821,494334.1650,175600.0000,175600.0000,4789.400620
161.7605413847,336.0083362,0.000000000,377.6336533,0.000000000,165.1191718,0.000000000,-554.4427377,341.9276465,493259.8309,175600.0000,175600.0000,4789.400620
165.5309323339,336.0004434,0.000000000,377.6336533,0.000000000,190.8423429,0.000000000,-554.4427377,367.5918990,491873.8657,175600.0000,175600.0000,4789.400620
170.0554014729,335.9902020,0.000000000,377.6336533,0.000000000,220.6647303,0.000000000,-554.4427377,397.4822524,490075.4696,175600.0000,175600.0000,4789.400620
175.4847644398,335.9768580,0.000000000,377.6336533,0.000000000,254.7731958,0.000000000,-554.4427377,431.5810067,487732.2596,175600.0000,175600.0000,4789.400620
182.0000000000,335.9594223,0.000000000,377.6336533,0.000000000,293.1411892,0.000000000,-554.4427377,469.9286805,484670.5636,175600.0000,175600.0000,4789.400620
183.8788920947,335.9538338,0.000000000,382.7173677,0.000000000,314.0335098,0.000000000,-590.9884041,522.2971086,483689.2237,175600.0000,175600.0000,4789.400620
186.1335626083,335.9468442,0.000000000,382.7173677,0.000000000,336.1159231,0.000000000,-590.9884041,544.3695612,482461.8497,175600.0000,175600.0000,4789.400620
188.8391672246,335.9380696,0.000000000,382.7173677,0.000000000,361.2239710,0.000000000,-590.9884041,569.4938598,480921.0245,175600.0000,175600.0000,4789.400620
192.0858927642,335.9270180,0.000000000,382.7173677,0.000000000,389.4609837,0.000000000,-590.9884041,597.7300110,478980.3592,175600.0000,175600.0000,4789.400620
195.9819634117,335.9130563,0.000000000,382.7173677,0.000000000,421.0006821,0.000000000,-590.9884041,629.2677752,476528.6874,175600.0000,175600.0000,4789.400620
200.6572481887,335.8953745,0.000000000,382.7173677,0.000000000,455.8529651,0.000000000,-590.9884041,664.1162330,473423.7549,175600.0000,175600.0000,4789.400620
206.2675899211,335.8729421,0.000000000,382.7173677,0.000000000,493.8646973,0.000000000,-590.9884041,702.1168069,469484.6397,175600.0000,175600.0000,4789.400620
213.0000000000,335.8444388,0.000000000,382.7173677,0.000000000,535.2024123,0.000000000,-590.9884041,743.4476581,464479.4452,175600.0000,175600.0000,4789.400620
214.8788920947,335.8387081,0.000000000,496.3815484,0.000000000,542.8155549,0.000000000,-489.1533642,535.5869577,463473.1351,175600.0000,175600.0000,4789.400620
217.1335626083,335.8317136,0.000000000,496.3815484,0.000000000,551.9724857,0.000000000,-489.1533642,544.7441918,462244.9164,175600.0000,175600.0000,4789.400620
219.8391672246,335.8231674,0.000000000,496.3815484,0.000000000,561.9181488,0.000000000,-489.1533642,554.6688990,460744.2017,175600.0000,175600.0000,4789.400620
223.0858927642,335.8127114,0.000000000,496.3815484,0.000000000,572.7451878,0.000000000,-489.1533642,565.5161605,458908.1259,175600.0000,175600.0000,4789.400620
226.9819634117,335.7998992,0.000000000,496.3815484,0.000000000,584.6918876,0.000000000,-489.1533642,577.4615579,456658.2949,175600.0000,175600.0000,4789.400620
231.6572481887,335.7841678,0.000000000,496.3815484,0.000000000,598.0936522,0.000000000,-489.1533642,590.8596749,453895.8577,175600.0000,175600.0000,4789.400620
237.2675899211,335.7648026,0.000000000,496.3815484,0.000000000,613.3556548,0.000000000,-489.1533642,606.1157915,450495.3410,175600.0000,175600.0000,4789.400620
244.0000000000,335.7409298,0.000000000,496.1659199,0.000000000,630.8138835,0.000000000,-488.9408756,623.5872635,446297.0958,175523.7192,175523.7192,4786.899571
245.8182826723,335.7356924,0.000000000,411.6007955,0.000000000,610.9726338,0.000000000,-307.0801392,506.4519827,445376.2229,175502.7696,175502.7696,4786.212687
248.0002218790,335.7294320,0.000000000,411.5420663,0.000000000,608.8538395,0.000000000,-307.0363235,504.3471736,444275.7680,175477.7280,175477.7280,4785.391638
250.6185489270,335.7219439,0.000000000,411.4718198,0.000000000,607.0427348,0.000000000,-306.9839152,502.5540838,442959.9171,175447.7756,175447.7756,4784.409574
253.7605413847,335.7129834,0.000000000,411.3877604,0.000000000,605.4244978,0.000000000,-306.9212015,500.9576226,441385.9120,175411.9334,175411.9334,4783.234402
257.5309323339,335.7022538,0.000000000,411.2871061,0.000000000,604.0975453,0.000000000,-306.8461071,499.6553877,439502.0159,175369.0154,175369.0154,4781.827230
262.0554014729,335.6893941,0.000000000,411.1664679,0.000000000,603.1945635,0.000000000,-306.7561033,498.7795613,437245.3031,175317.5763,175317.5763,4780.140676
267.4847644398,335.6739646,0.000000000,411.0217222,0.000000000,602.7674470,0.000000000,-306.6481139,498.3884109,434539.3716,175255.8581,175255.8581,4778.117095
274.0000000000,335.6554281,0.000000000,410.8907200,0.000000000,602.9321851,0.000000000,-306.5503781,498.5810109,431290.9988,175200.0000,175200.0000,4776.285652
275.8788920947,335.6522795,0.000000000,470.8471742,0.000000000,574.3596840,0.000000000,-190.0773733,293.5899590,430739.3750,175200.0000,175200.0000,4776.285652
278.1335626083,335.6488217,0.000000000,470.8471742,0.000000000,549.4550342,0.000000000,-190.0773733,268.6891035,430133.5696,175200.0000,175200.0000,4776.285652
280.8391672246,335.6451177,0.000000000,470.8471742,0.000000000,520.6149674,0.000000000,-190.0773733,239.8531326,429484.6218,175200.0000,175200.0000,4776.285652
284.0858927642,335.6412866,0.000000000,470.8471742,0.000000000,487.4936893,0.000000000,-190.0773733,206.7341654,428813.4127,175200.0000,175200.0000,4776.285652
287.9819634117,335.6375245,0.000000000,470.8471742,0.000000000,449.9310105,0.000000000,-190.0773733,169.1774660,428154.2854,175200.0000,175200.0000,4776.285652
292.6572481887,335.6341315,0.000000000,470.8471742,0.000000000,407.8842105,0.000000000,-190.0773733,127.1465329,427559.8391,175200.0000,175200.0000,4776.285652
298.2675899211,335.6315452,0.000000000,470.8471742,0.000000000,361.4610717,0.000000000,-190.0773733,80.76553889,427106.7168,175200.0000,175200.0000,4776.285652
305.0000000000,335.6303806,0.000000000,470.8471742,0.000000000,310.9394916,0.000000000,-190.0773733,30.30592019,426902.6850,175200.0000,175200.0000,4776.285652
306.8182826723,335.6264415,0.000000000,72.68464000,0.000000000,315.2554094,0.000000000,-136.9788016,379.5503914,426212.5551,175200.0000,175200.0000,4776.285652
309.0002218790,335.6216389,0.000000000,72.68464000,0.000000000,321.3431063,0.000000000,-136.9788016,385.6266106,425371.1412,175200.0000,175200.0000,4776.285652
311.6185489270,335.6157550,0.000000000,72.68464000,0.000000000,329.4213417,0.000000000,-136.9788016,393.7144787,424340.2680,175200.0000,175200.0000,4776.285652
314.7605413847,335.6085175,0.000000000,72.68464000,0.000000000,339.2959843,0.000000000,-136.9788016,403.5656359,423072.2678,175200.0000,175200.0000,4776.285652
318.5309323339,335.5995897,0.000000000,72.68464000,0.000000000,350.6036218,0.000000000,-136.9788016,414.8529887,421508.1098,175200.0000,175200.0000,4776.285652
323.0554014729,335.5885555,0.000000000,72.68464000,0.000000000,362.9825867,0.000000000,-136.9788016,427.2730221,419574.9262,175200.0000,175200.0000,4776.285652
328.4847644398,335.5749163,0.000000000,72.68464000,0.000000000,375.9756050,0.000000000,-136.9788016,440.1243481,417185.3314,175200.0000,175200.0000,4776.285652
335.0000000000,335.5580604,0.000000000,72.68464000,0.000000000,388.9839198,0.000000000,-136.9788016,453.2670014,414232.1901,175200.0000,175200.0000,4776.285652
336.8788920947,335.5538075,0.000000000,96.17914839,0.000000000,393.8622132,0.000000000,-98.89344687,396.5730907,413487.0721,175200.0000,175200.0000,4776.285652
339.1335626083,335.5486338,0.000000000,96.17914839,0.000000000,399.3184870,0.000000000,-98.89344687,402.0232068,412580.6422,175200.0000,175200.0000,4776.285652
341.8391672246,335.5423322,0.000000000,96.17914839,0.000000000,405.3450736,0.000000000,-98.89344687,408.0594363,411476.5947,175200.0000,175200.0000,4776.285652
345.0858927642,335.5346499,0.000000000,96.17914839,0.000000000,411.8662425,0.000000000,-98.89344687,414.5514629,410130.6599,175200.0000,175200.0000,4776.285652
348.9819634117,335.5252767,0.000000000,96.17914839,0.000000000,418.8286871,0.000000000,-98.89344687,421.4976121,408488.4754,175200.0000,175200.0000,4776.285652
353.6572481887,335.5138341,0.000000000,96.17914839,0.000000000,426.1641163,0.000000000,-98.89344687,428.7947914,406483.7376,175200.0000,175200.0000,4776.285652
359.2675899211,335.4998608,0.000000000,96.17914839,0.000000000,433.7929768,0.000000000,-98.89344687,436.3584615,404035.6176,175200.0000,175200.0000,4776.285652
366.0000000000,335.4828029,0.000000000,96.17914839,0.000000000,441.4453787,0.000000000,-98.89344687,443.9038625,401047.0747,175200.0000,175200.0000,4776.285652
367.8788920947,335.4790394,0.000000000,183.7452387,0.000000000,446.3579647,0.000000000,-88.33928111,350.9408436,400387.6947,175200.0000,175200.0000,4776.285652
370.1335626083,335.4744584,0.000000000,183.7452387,0.000000000,451.3902139,0.000000000,-88.33928111,355.9669582,399585.1065,175200.0000,175200.0000,4776.285652
372.8391672246,335.4688847,0.000000000,183.7405602,0.000000000,456.4976839,0.000000000,-88.33703183,361.0814888,398608.1628,175195.5391,175195.5391,4776.140591
376.0858927642,335.4621144,0.000000000,183.7121581,0.000000000,461.5090399,0.000000000,-88.32337694,366.0985622,397419.5412,175168.4579,175168.4579,4775.259957
379.9819634117,335.4538774,0.000000000,183.6776029,0.000000000,466.4628009,0.000000000,-88.30676379,371.0495811,395973.9059,175135.5096,175135.5096,4774.188539
384.6572481887,335.4438598,0.000000000,183.6355780,0.000000000,471.3058623,0.000000000,-88.28655950,375.8907155,394216.5097,175095.4392,175095.4392,4772.885520
390.2675899211,335.4316825,0.000000000,183.5844930,0.000000000,476.0296663,0.000000000,-88.26199935,380.5817310,392081.3162,175046.7300,175046.7300,4771.301583
397.0000000000,335.4168882,0.000000000,183.5224295,0.000000000,480.5808792,0.000000000,-88.23216103,385.0726103,389488.8494,174987.5527,174987.5527,4769.377245
398.6970638274,335.4115695,0.000000000,22.22071730,0.000000000,466.0911186,0.000000000,-105.2126597,548.9421216,388557.2596,174966.2779,174966.2779,4768.685426
400.7335404204,335.4053639,0.000000000,22.21756485,0.000000000,450.6167381,0.000000000,-105.1977332,533.5931713,387470.6096,174941.4555,174941.4555,4767.878244
403.1773123319,335.3981503,0.000000000,22.21390036,0.000000000,434.0984830,0.000000000,-105.1803823,516.7260435,386207.8490,174912.6013,174912.6013,4766.939957
406.1098386257,335.3897877,0.000000000,22.20965213,0.000000000,416.5887021,0.000000000,-105.1602674,499.0216237,384744.4550,174879.1507,174879.1507,4765.852202
409.6288701783,335.3801243,0.000000000,22.20474312,0.000000000,398.1713558,0.000000000,-105.1370237,480.3364837,383054.1357,174840.4970,174840.4970,4764.595254
413.8517080414,335.3689969,0.000000000,22.19960000,0.000000000,378.9186853,0.000000000,-105.1126716,460.7033818,381108.6601,174800.0000,174800.0000,4763.278364
418.9191134771,335.3562313,0.000000000,22.19960000,0.000000000,359.0382150,0.000000000,-105.1126716,440.3489198,378877.2336,174800.0000,174800.0000,4763.278364
425.0000000000,335.3416444,0.000000000,22.19960000,0.000000000,338.7608384,0.000000000,-105.1126716,419.3137922,376327.4340,174800.0000,174800.0000,4763.278364
426.8788920947,335.3395081,0.000000000,264.9629677,0.000000000,322.9889684,0.000000000,-140.7175811,198.7446249,375954.0143,174800.0000,174800.0000,4763.278364
429.1335626083,335.3371741,0.000000000,264.9629677,0.000000000,305.0727281,0.000000000,-140.7175811,180.9463757,375546.0398,174800.0000,174800.0000,4763.278364
431.8391672246,335.3346836,0.000000000,264.9629677,0.000000000,284.9761075,0.000000000,-140.7175811,160.9029031,375110.7002,174800.0000,174800.0000,4763.278364
435.0858927642,335.3321100,0.000000000,264.9629677,0.000000000,262.8010743,0.000000000,-140.7175811,138.5612683,374660.8298,174800.0000,174800.0000,4763.278364
438.9819634117,335.3295594,0.000000000,264.9629677,0.000000000,238.6686782,0.000000000,-140.7175811,114.4327591,374214.9916,174800.0000,174800.0000,4763.278364
443.6572481887,335.3271924,0.000000000,264.9629677,0.000000000,212.7303530,0.000000000,-140.7175811,88.50045746,373801.2268,174800.0000,174800.0000,4763.278364
449.2675899211,335.3252339,0.000000000,264.9629677,0.000000000,185.2352755,0.000000000,-140.7175811,61.02099933,373458.8781,174800.0000,174800.0000,4763.278364
456.0000000000,335.3239902,0.000000000,264.9629677,0.000000000,156.4761416,0.000000000,-140.7175811,32.29006371,373241.4882,174800.0000,174800.0000,4763.278364
457.8182826723,335.3253552,0.000000000,504.6709067,0.000000000,152.2404258,0.000000000,-221.2026112,-131.2210642,373480.0852,174800.0000,174800.0000,4763.278364
460.0002218790,335.3270523,0.000000000,504.6709067,0.000000000,147.2726668,0.000000000,-221.2026112,-135.9620705,373776.7462,174800.0000,174800.0000,4763.278364
